   k          Depth           T          Pe            Pg    Prad  KappaRoss       Density      Mu      Vconv  Fconv/F                  RHOX
1         -6.036E+07      4036.1       0.021       279.600   1.460  2.001E-03     1.056E-09   1.267  0.000E+00        0          8.888118E-03
2         -5.810E+07      4070.2       0.028       362.900   1.461  2.458E-03     1.359E-09   1.267  0.000E+00        0          1.152349E-02
3         -5.584E+07      4112.4       0.036       469.800   1.461  3.024E-03     1.741E-09   1.267  0.000E+00        0          1.490266E-02
4         -5.356E+07      4156.2       0.046       607.500   1.461  3.721E-03     2.228E-09   1.267  0.000E+00        0          1.925578E-02
5         -5.126E+07      4200.8       0.060       784.700   1.462  4.582E-03     2.847E-09   1.267  0.000E+00        0          2.486026E-02
6         -4.895E+07      4245.9       0.078      1013.000   1.462  5.645E-03     3.636E-09   1.267  0.000E+00        0          3.207173E-02
7         -4.661E+07      4291.4       0.100      1306.000   1.463  6.958E-03     4.639E-09   1.267  0.000E+00        0          4.134646E-02
8         -4.427E+07      4337.2       0.129      1683.000   1.464  8.580E-03     5.915E-09   1.267  0.000E+00        0          5.326938E-02
9         -4.190E+07        4383       0.167      2168.000   1.466  1.059E-02     7.538E-09   1.267  0.000E+00        0          6.858944E-02
10        -3.951E+07      4428.9       0.215      2790.000   1.468  1.307E-02     9.602E-09   1.267  0.000E+00        0          8.826371E-02
11        -3.711E+07      4474.4       0.276      3588.000   1.470  1.614E-02     1.223E-08   1.268  0.000E+00        0          1.135165E-01
12        -3.593E+07      4497.7       0.313      4069.000   1.471  1.794E-02     1.379E-08   1.268  0.000E+00        0          1.287078E-01
13        -3.474E+07      4520.8       0.354      4613.000   1.473  1.995E-02     1.555E-08   1.268  0.000E+00        0          1.459114E-01
14        -3.355E+07      4543.8       0.401      5229.000   1.475  2.218E-02     1.754E-08   1.268  0.000E+00        0          1.653924E-01
15        -3.236E+07      4566.8       0.455      5926.000   1.478  2.466E-02     1.978E-08   1.268  0.000E+00        0          1.874496E-01
16        -3.116E+07        4590       0.515      6716.000   1.481  2.742E-02     2.231E-08   1.268  0.000E+00        0          2.124225E-01
17        -2.996E+07      4613.2       0.583      7610.000   1.484  3.050E-02     2.515E-08   1.268  0.000E+00        0          2.406935E-01
18        -2.875E+07      4636.8       0.660      8622.000   1.488  3.392E-02     2.835E-08   1.268  0.000E+00        0          2.726928E-01
19        -2.754E+07      4660.6       0.747      9767.000   1.493  3.773E-02     3.195E-08   1.268  0.000E+00        0          3.089085E-01
20        -2.632E+07      4684.8       0.846     11060.000   1.499  4.198E-02     3.601E-08   1.268  0.000E+00        0          3.498921E-01
21        -2.510E+07      4709.8       0.958     12530.000   1.506  4.671E-02     4.056E-08   1.268  0.000E+00        0          3.962652E-01
22        -2.387E+07      4735.6       1.086     14190.000   1.515  5.198E-02     4.569E-08   1.268  0.000E+00        0          4.487293E-01
23        -2.263E+07      4762.6       1.231     16070.000   1.525  5.785E-02     5.144E-08   1.268  0.000E+00        0          5.080788E-01
24        -2.139E+07      4791.1       1.398     18190.000   1.538  6.441E-02     5.789E-08   1.268  0.000E+00        0          5.752033E-01
25        -2.015E+07      4821.5       1.588     20590.000   1.553  7.171E-02     6.512E-08   1.268  0.000E+00        0          6.511030E-01
26        -1.890E+07      4854.3       1.808     23300.000   1.572  7.988E-02     7.320E-08   1.268  0.000E+00        0          7.369025E-01
27        -1.764E+07      4890.1       2.063     26370.000   1.595  8.900E-02     8.223E-08   1.268  0.000E+00        0          8.338587E-01
28        -1.637E+07      4929.2       2.359     29830.000   1.623  9.921E-02     9.230E-08   1.268  0.000E+00        0          9.433834E-01
29        -1.509E+07      4972.6       2.706     33740.000   1.657  1.106E-01     1.035E-07   1.268  0.000E+00        0          1.067049E+00
30        -1.381E+07        5020       3.114     38150.000   1.699  1.235E-01     1.159E-07   1.268  0.000E+00        0          1.206608E+00
31        -1.252E+07      5073.6       3.602     43130.000   1.750  1.379E-01     1.297E-07   1.268  0.000E+00        0          1.363988E+00
32        -1.121E+07      5133.6       4.190     48740.000   1.814  1.543E-01     1.448E-07   1.268  0.000E+00        0          1.541248E+00
33        -9.899E+06      5201.9       4.913     55040.000   1.891  1.731E-01     1.614E-07   1.268  0.000E+00        0          1.740480E+00
34        -8.578E+06      5278.9       5.818     62090.000   1.987  1.950E-01     1.794E-07   1.268  0.000E+00        0          1.963629E+00
35        -7.252E+06      5366.3       6.986     69950.000   2.105  2.213E-01     1.988E-07   1.268  0.000E+00        0          2.212105E+00
36        -5.930E+06      5466.4       8.560     78610.000   2.252  2.544E-01     2.193E-07   1.268  0.000E+00        0          2.486068E+00
37        -4.625E+06      5579.5      10.760     88020.000   2.433  2.979E-01     2.405E-07   1.268  0.000E+00        0          2.783508E+00
38        -3.356E+06      5708.8      14.010     98000.000   2.657  3.583E-01     2.617E-07   1.268  0.000E+00        0          3.099167E+00
39        -2.147E+06        5856      19.010    108300.000   2.936  4.454E-01     2.819E-07   1.268  0.000E+00        0          3.424248E+00
40        -1.022E+06      6023.3      27.010    118500.000   3.284  5.744E-01     2.999E-07   1.267  3.295E+01        0          3.747513E+00
41         0.000E+00      6212.7      40.170    128300.000   3.718  7.685E-01     3.147E-07   1.267  4.505E+02        0          4.057372E+00
42         9.083E+05      6427.9      62.500    137400.000   4.262  1.066E+00     3.256E-07   1.267  6.987E+03  0.00001          4.343744E+00
43         1.700E+06      6669.1     100.700    145500.000   4.946  1.524E+00     3.322E-07   1.267  2.018E+04  0.00033          4.599929E+00
44         2.373E+06      6956.4     171.900    152400.000   5.810  2.294E+00     3.336E-07   1.266  5.380E+04  0.00656          4.820045E+00
45         2.929E+06      7284.4     303.200    158100.000   6.872  3.582E+00     3.302E-07   1.265  1.091E+05  0.05719          5.000293E+00
46         3.392E+06      7584.9     492.000    162800.000   8.066  5.306E+00     3.262E-07   1.263  1.576E+05   0.1793          5.148546E+00
47         3.800E+06      7842.4     726.400    166900.000   9.296  7.366E+00     3.230E-07   1.262  1.918E+05  0.33958          5.278580E+00
48         4.183E+06      8063.8     998.500    170700.000  10.490  9.707E+00     3.208E-07    1.26  2.136E+05  0.49473          5.399725E+00
49         4.556E+06      8257.5    1304.000    174500.000  11.620  1.232E+01     3.196E-07   1.258  2.261E+05  0.62143          5.517805E+00
50         4.932E+06      8431.1    1642.000    178200.000  12.680  1.520E+01     3.192E-07   1.256  2.326E+05  0.71545          5.636737E+00
51         5.319E+06      8590.2    2016.000    182100.000  13.700  1.838E+01     3.195E-07   1.253  2.349E+05  0.77893          5.759380E+00
52         6.170E+06      8876.6    2875.000    190500.000  15.650  2.571E+01     3.222E-07   1.248  2.340E+05  0.86042          6.025219E+00
53         7.135E+06        9144    3947.000    200200.000  17.620  3.491E+01     3.271E-07   1.242  2.305E+05  0.91006          6.331552E+00
54         8.250E+06      9402.6    5297.000    211600.000  19.700  4.654E+01     3.345E-07   1.236  2.252E+05  0.93999          6.692775E+00
55         9.550E+06      9658.6    7015.000    225300.000  21.940  6.129E+01     3.445E-07   1.228  2.191E+05  0.95919          7.125123E+00
56         1.107E+07      9916.3    9221.000    241800.000  24.380  7.999E+01     3.575E-07   1.219  2.113E+05  0.97698          7.648074E+00
